# frek [Hz] rms U2 [V]
10000 +1.24241522E-04
11000 +1.28623514E-04
12000 +1.35229020E-04
13000 +1.43767741E-04
14000 +1.53409148E-04
15000 +1.63788695E-04
16000 +1.75429485E-04
17000 +1.88827813E-04
18000 +2.02984785E-04
19000 +2.20830420E-04
20000 +2.49663999E-04
21000 +2.58578066E-04
22000 +2.81521189E-04
23000 +3.08325884E-04
24000 +3.34093493E-04
25000 +3.65182754E-04
26000 +4.01213023E-04
27000 +4.39154537E-04
28000 +4.82133718E-04
29000 +5.30466315E-04
30000 +5.83999179E-04
31000 +6.43864943E-04
32000 +7.11497304E-04
33000 +7.87335547E-04
34000 +8.73216928E-04
35000 +9.69171576E-04
36000 +1.07849358E-03
37000 +1.20518138E-03
38000 +1.34484621E-03
39000 +1.50853865E-03
40000 +1.69743332E-03
41000 +1.91621096E-03
42000 +2.17076733E-03
43000 +2.47075567E-03
44000 +2.82508507E-03
45000 +3.24739229E-03
46000 +3.75644288E-03
47000 +4.37635086E-03
48000 +5.13942232E-03
49000 +6.09389008E-03
50000 +7.30563481E-03
51000 +8.87642978E-03
52000 +1.09617144E-02
53000 +1.38147068E-02
54000 +1.78638712E-02
55000 +2.39038907E-02
56000 +3.35389465E-02
57000 +5.04990570E-02
58000 +8.48854989E-02
59000 +1.63508919E-01
60000 +2.19883613E-01
61000 +1.54676694E-01
62000 +1.19464890E-01
63000 +1.06647348E-01
64000 +1.06476203E-01
65000 +1.17876216E-01
66000 +1.46615869E-01
67000 +2.04724464E-01
68000 +2.28215720E-01
69000 +1.41458240E-01
70000 +8.61836195E-02
71000 +5.84488049E-02
72000 +4.29006521E-02
73000 +3.32391035E-02
74000 +2.67644465E-02
75000 +2.21803505E-02
76000 +1.87984336E-02
77000 +1.62186619E-02
78000 +1.41966256E-02
79000 +1.25796607E-02
80000 +1.12632262E-02
81000 +1.01732241E-02
82000 +9.25960839E-03
83000 +8.48542647E-03
84000 +7.82217477E-03
85000 +7.24927853E-03
86000 +6.75062970E-03
87000 +6.31223931E-03
88000 +5.92576074E-03
89000 +5.58295092E-03
90000 +5.27640306E-03
91000 +5.00146146E-03
92000 +4.75439043E-03
93000 +4.52989931E-03
94000 +4.32632687E-03
95000 +4.14087470E-03
96000 +3.97111042E-03
97000 +3.81469319E-03
98000 +3.67140537E-03
99000 +3.53915340E-03
100000 +3.41724621E-03
