Kot	I [A]
-90	2.97E-06
-85	8.30E-06
-80	1.85E-05
-75	3.32E-05
-70	5.39E-05
-65	6.91E-05
-60	9.17E-05
-55	1.17E-04
-50	1.44E-04
-45	1.69E-04
-40	1.94E-04
-35	2.19E-04
-30	2.42E-04
-25	2.60E-04
-20	2.77E-04
-15	2.92E-04
-10	3.01E-04
-5	3.06E-04
0	3.04E-04
5	3.00E-04
10	2.89E-04
15	2.78E-04
20	2.63E-04
25	2.43E-04
30	2.23E-04
35	2.01E-04
40	1.76E-04
45	1.49E-04
50	1.21E-04
55	9.50E-05
60	6.98E-05
65	4.85E-05
70	2.98E-05
75	1.65E-05
80	7.08E-06
85	2.35E-06
90	2.56E-06
